# Rank of the process:       0
#                   time                  density
 0.0000000000000000E+000  0.9999999999999473E+000
 0.6362083007563815E-003  0.9798862705522637E+000
 0.1286636751480622E-002  0.9597396165870619E+000
 0.1856068287224059E-002  0.9429546184435621E+000
 0.2487052236010316E-002  0.9247521249978825E+000
 0.3092342637409050E-002  0.9069856217396451E+000
 0.3688553920401238E-002  0.8886533934801304E+000
 0.4266106507758835E-002  0.8697982356121016E+000
 0.4855018143048688E-002  0.8494420133378663E+000
 0.5429315729246547E-002  0.8288529423923882E+000
 0.6005884576624611E-002  0.8087944560034609E+000
 0.6605579387067594E-002  0.7893411976113928E+000
 0.7243452505259924E-002  0.7706893399242767E+000
 0.7864636016471079E-002  0.7568202553303339E+000
 0.8409669480281282E-002  0.7447895831884956E+000
 0.9013550151595065E-002  0.7311707444313235E+000
 0.9684413150180456E-002  0.7166196439921829E+000
 0.1028249839755096E-001  0.7044984480549638E+000
 0.1090010489693462E-001  0.6928762881203490E+000
 0.1143353228091373E-001  0.6835614115978550E+000
 0.1200000000000000E-001  0.6743925521557455E+000
